# M (M_s) 	 dN/dMdV (M_s^-1 pc^-3)
1.019e-04 	 2.221e-01 	
1.038e-04 	 2.290e-01 	
1.057e-04 	 2.360e-01 	
1.077e-04 	 2.432e-01 	
1.097e-04 	 2.506e-01 	
1.117e-04 	 2.582e-01 	
1.138e-04 	 2.659e-01 	
1.159e-04 	 2.739e-01 	
1.181e-04 	 2.821e-01 	
1.202e-04 	 2.904e-01 	
1.225e-04 	 2.990e-01 	
1.248e-04 	 3.078e-01 	
1.271e-04 	 3.168e-01 	
1.295e-04 	 3.260e-01 	
1.319e-04 	 3.355e-01 	
1.343e-04 	 3.452e-01 	
1.368e-04 	 3.551e-01 	
1.394e-04 	 3.652e-01 	
1.420e-04 	 3.756e-01 	
1.446e-04 	 3.862e-01 	
1.473e-04 	 3.971e-01 	
1.500e-04 	 4.082e-01 	
1.528e-04 	 4.196e-01 	
1.557e-04 	 4.312e-01 	
1.586e-04 	 4.431e-01 	
1.615e-04 	 4.553e-01 	
1.645e-04 	 4.678e-01 	
1.676e-04 	 4.805e-01 	
1.707e-04 	 4.935e-01 	
1.739e-04 	 5.067e-01 	
1.771e-04 	 5.203e-01 	
1.804e-04 	 5.342e-01 	
1.838e-04 	 5.483e-01 	
1.872e-04 	 5.628e-01 	
1.907e-04 	 5.775e-01 	
1.942e-04 	 5.926e-01 	
1.978e-04 	 6.080e-01 	
2.015e-04 	 6.236e-01 	
2.053e-04 	 6.396e-01 	
2.091e-04 	 6.560e-01 	
2.130e-04 	 6.726e-01 	
2.169e-04 	 6.896e-01 	
2.210e-04 	 7.069e-01 	
2.251e-04 	 7.246e-01 	
2.293e-04 	 7.426e-01 	
2.335e-04 	 7.609e-01 	
2.379e-04 	 7.796e-01 	
2.423e-04 	 7.986e-01 	
2.468e-04 	 8.180e-01 	
2.514e-04 	 8.378e-01 	
2.561e-04 	 8.579e-01 	
2.609e-04 	 8.784e-01 	
2.657e-04 	 8.992e-01 	
2.707e-04 	 9.204e-01 	
2.757e-04 	 9.420e-01 	
2.808e-04 	 9.640e-01 	
2.861e-04 	 9.863e-01 	
2.914e-04 	 1.009e+00 	
2.968e-04 	 1.032e+00 	
3.023e-04 	 1.056e+00 	
3.080e-04 	 1.080e+00 	
3.137e-04 	 1.104e+00 	
3.195e-04 	 1.129e+00 	
3.255e-04 	 1.154e+00 	
3.315e-04 	 1.179e+00 	
3.377e-04 	 1.205e+00 	
3.440e-04 	 1.231e+00 	
3.504e-04 	 1.258e+00 	
3.569e-04 	 1.285e+00 	
3.635e-04 	 1.312e+00 	
3.703e-04 	 1.340e+00 	
3.772e-04 	 1.369e+00 	
3.842e-04 	 1.397e+00 	
3.914e-04 	 1.426e+00 	
3.987e-04 	 1.456e+00 	
4.061e-04 	 1.486e+00 	
4.136e-04 	 1.516e+00 	
4.213e-04 	 1.547e+00 	
4.292e-04 	 1.578e+00 	
4.372e-04 	 1.610e+00 	
4.453e-04 	 1.642e+00 	
4.536e-04 	 1.674e+00 	
4.620e-04 	 1.707e+00 	
4.706e-04 	 1.740e+00 	
4.794e-04 	 1.774e+00 	
4.883e-04 	 1.808e+00 	
4.974e-04 	 1.842e+00 	
5.066e-04 	 1.877e+00 	
5.161e-04 	 1.913e+00 	
5.257e-04 	 1.948e+00 	
5.355e-04 	 1.984e+00 	
5.454e-04 	 2.021e+00 	
5.556e-04 	 2.058e+00 	
5.659e-04 	 2.095e+00 	
5.764e-04 	 2.132e+00 	
5.872e-04 	 2.170e+00 	
5.981e-04 	 2.209e+00 	
6.092e-04 	 2.247e+00 	
6.206e-04 	 2.287e+00 	
6.321e-04 	 2.326e+00 	
6.439e-04 	 2.366e+00 	
6.559e-04 	 2.406e+00 	
6.681e-04 	 2.447e+00 	
6.805e-04 	 2.488e+00 	
6.932e-04 	 2.529e+00 	
7.061e-04 	 2.570e+00 	
7.192e-04 	 2.612e+00 	
7.326e-04 	 2.655e+00 	
7.462e-04 	 2.697e+00 	
7.601e-04 	 2.740e+00 	
7.743e-04 	 2.783e+00 	
7.887e-04 	 2.827e+00 	
8.034e-04 	 2.871e+00 	
8.183e-04 	 2.915e+00 	
8.335e-04 	 2.959e+00 	
8.490e-04 	 3.004e+00 	
8.648e-04 	 3.049e+00 	
8.809e-04 	 3.094e+00 	
8.973e-04 	 3.139e+00 	
9.140e-04 	 3.185e+00 	
9.310e-04 	 3.231e+00 	
9.484e-04 	 3.277e+00 	
9.660e-04 	 3.323e+00 	
9.840e-04 	 3.369e+00 	
1.002e-03 	 3.416e+00 	
1.021e-03 	 3.463e+00 	
1.040e-03 	 3.510e+00 	
1.059e-03 	 3.557e+00 	
1.079e-03 	 3.604e+00 	
1.099e-03 	 3.652e+00 	
1.120e-03 	 3.700e+00 	
1.140e-03 	 3.747e+00 	
1.162e-03 	 3.795e+00 	
1.183e-03 	 3.843e+00 	
1.205e-03 	 3.891e+00 	
1.228e-03 	 3.939e+00 	
1.251e-03 	 3.987e+00 	
1.274e-03 	 4.035e+00 	
1.298e-03 	 4.083e+00 	
1.322e-03 	 4.132e+00 	
1.346e-03 	 4.180e+00 	
1.371e-03 	 4.228e+00 	
1.397e-03 	 4.276e+00 	
1.423e-03 	 4.324e+00 	
1.449e-03 	 4.372e+00 	
1.476e-03 	 4.421e+00 	
1.504e-03 	 4.469e+00 	
1.532e-03 	 4.516e+00 	
1.560e-03 	 4.564e+00 	
1.589e-03 	 4.612e+00 	
1.619e-03 	 4.659e+00 	
1.649e-03 	 4.707e+00 	
1.680e-03 	 4.754e+00 	
1.711e-03 	 4.801e+00 	
1.743e-03 	 4.848e+00 	
1.775e-03 	 4.895e+00 	
1.808e-03 	 4.941e+00 	
1.842e-03 	 4.987e+00 	
1.876e-03 	 5.033e+00 	
1.911e-03 	 5.079e+00 	
1.947e-03 	 5.124e+00 	
1.983e-03 	 5.170e+00 	
2.020e-03 	 5.214e+00 	
2.057e-03 	 5.259e+00 	
2.096e-03 	 5.303e+00 	
2.135e-03 	 5.347e+00 	
2.174e-03 	 5.390e+00 	
2.215e-03 	 5.434e+00 	
2.256e-03 	 5.476e+00 	
2.298e-03 	 5.519e+00 	
2.341e-03 	 5.560e+00 	
2.384e-03 	 5.602e+00 	
2.429e-03 	 5.643e+00 	
2.474e-03 	 5.683e+00 	
2.520e-03 	 5.723e+00 	
2.567e-03 	 5.763e+00 	
2.615e-03 	 5.802e+00 	
2.663e-03 	 5.841e+00 	
2.713e-03 	 5.879e+00 	
2.763e-03 	 5.916e+00 	
2.815e-03 	 5.953e+00 	
2.867e-03 	 5.989e+00 	
2.921e-03 	 6.025e+00 	
2.975e-03 	 6.060e+00 	
3.030e-03 	 6.094e+00 	
3.087e-03 	 6.128e+00 	
3.144e-03 	 6.161e+00 	
3.203e-03 	 6.194e+00 	
3.262e-03 	 6.226e+00 	
3.323e-03 	 6.257e+00 	
3.385e-03 	 6.288e+00 	
3.448e-03 	 6.317e+00 	
3.512e-03 	 6.347e+00 	
3.577e-03 	 6.375e+00 	
3.644e-03 	 6.403e+00 	
3.712e-03 	 6.430e+00 	
3.781e-03 	 6.456e+00 	
3.851e-03 	 6.481e+00 	
3.923e-03 	 6.506e+00 	
3.996e-03 	 6.529e+00 	
4.070e-03 	 6.552e+00 	
4.146e-03 	 6.575e+00 	
4.223e-03 	 6.596e+00 	
4.302e-03 	 6.617e+00 	
4.382e-03 	 6.636e+00 	
4.463e-03 	 6.655e+00 	
4.546e-03 	 6.673e+00 	
4.631e-03 	 6.691e+00 	
4.717e-03 	 6.707e+00 	
4.805e-03 	 6.722e+00 	
4.894e-03 	 6.737e+00 	
4.985e-03 	 6.751e+00 	
5.078e-03 	 6.764e+00 	
5.173e-03 	 6.776e+00 	
5.269e-03 	 6.787e+00 	
5.367e-03 	 6.797e+00 	
5.467e-03 	 6.806e+00 	
5.569e-03 	 6.815e+00 	
5.672e-03 	 6.822e+00 	
5.778e-03 	 6.829e+00 	
5.885e-03 	 6.834e+00 	
5.995e-03 	 6.839e+00 	
6.106e-03 	 6.843e+00 	
6.220e-03 	 6.846e+00 	
6.336e-03 	 6.848e+00 	
6.454e-03 	 6.849e+00 	
6.574e-03 	 6.849e+00 	
6.696e-03 	 6.848e+00 	
6.821e-03 	 6.846e+00 	
6.948e-03 	 6.844e+00 	
7.077e-03 	 6.840e+00 	
7.209e-03 	 6.836e+00 	
7.343e-03 	 6.830e+00 	
7.480e-03 	 6.824e+00 	
7.619e-03 	 6.817e+00 	
7.761e-03 	 6.808e+00 	
7.905e-03 	 6.799e+00 	
8.052e-03 	 6.789e+00 	
8.202e-03 	 6.779e+00 	
8.355e-03 	 6.767e+00 	
8.510e-03 	 6.754e+00 	
8.668e-03 	 6.741e+00 	
8.830e-03 	 6.726e+00 	
8.994e-03 	 6.711e+00 	
9.161e-03 	 6.695e+00 	
9.332e-03 	 6.678e+00 	
9.506e-03 	 6.660e+00 	
9.682e-03 	 6.641e+00 	
9.863e-03 	 6.622e+00 	
1.005e-02 	 6.601e+00 	
1.023e-02 	 6.580e+00 	
1.042e-02 	 6.558e+00 	
1.062e-02 	 6.535e+00 	
1.082e-02 	 6.512e+00 	
1.102e-02 	 6.487e+00 	
1.122e-02 	 6.462e+00 	
1.143e-02 	 6.436e+00 	
1.164e-02 	 6.410e+00 	
1.186e-02 	 6.382e+00 	
1.208e-02 	 6.354e+00 	
1.231e-02 	 6.325e+00 	
1.253e-02 	 6.295e+00 	
1.277e-02 	 6.265e+00 	
1.301e-02 	 6.234e+00 	
1.325e-02 	 6.202e+00 	
1.349e-02 	 6.170e+00 	
1.374e-02 	 6.137e+00 	
1.400e-02 	 6.103e+00 	
1.426e-02 	 6.069e+00 	
1.453e-02 	 6.034e+00 	
1.480e-02 	 5.998e+00 	
1.507e-02 	 5.962e+00 	
1.535e-02 	 5.925e+00 	
1.564e-02 	 5.888e+00 	
1.593e-02 	 5.850e+00 	
1.623e-02 	 5.812e+00 	
1.653e-02 	 5.773e+00 	
1.684e-02 	 5.734e+00 	
1.715e-02 	 5.694e+00 	
1.747e-02 	 5.653e+00 	
1.779e-02 	 5.612e+00 	
1.812e-02 	 5.571e+00 	
1.846e-02 	 5.529e+00 	
1.881e-02 	 5.487e+00 	
1.916e-02 	 5.444e+00 	
1.951e-02 	 5.401e+00 	
1.987e-02 	 5.358e+00 	
2.024e-02 	 5.314e+00 	
2.062e-02 	 5.270e+00 	
2.100e-02 	 5.226e+00 	
2.140e-02 	 5.181e+00 	
2.179e-02 	 5.136e+00 	
2.220e-02 	 5.091e+00 	
2.261e-02 	 5.045e+00 	
2.303e-02 	 4.999e+00 	
2.346e-02 	 4.953e+00 	
2.390e-02 	 4.906e+00 	
2.434e-02 	 4.860e+00 	
2.480e-02 	 4.813e+00 	
2.526e-02 	 4.766e+00 	
2.573e-02 	 4.719e+00 	
2.621e-02 	 4.671e+00 	
2.669e-02 	 4.624e+00 	
2.719e-02 	 4.576e+00 	
2.770e-02 	 4.529e+00 	
2.821e-02 	 4.481e+00 	
2.874e-02 	 4.433e+00 	
2.927e-02 	 4.385e+00 	
2.982e-02 	 4.337e+00 	
3.037e-02 	 4.289e+00 	
3.094e-02 	 4.240e+00 	
3.151e-02 	 4.192e+00 	
3.210e-02 	 4.144e+00 	
3.270e-02 	 4.096e+00 	
3.331e-02 	 4.048e+00 	
3.393e-02 	 3.999e+00 	
3.456e-02 	 3.951e+00 	
3.520e-02 	 3.903e+00 	
3.586e-02 	 3.855e+00 	
3.652e-02 	 3.807e+00 	
3.720e-02 	 3.759e+00 	
3.789e-02 	 3.712e+00 	
3.860e-02 	 3.664e+00 	
3.932e-02 	 3.617e+00 	
4.005e-02 	 3.569e+00 	
4.080e-02 	 3.522e+00 	
4.155e-02 	 3.475e+00 	
4.233e-02 	 3.428e+00 	
4.312e-02 	 3.381e+00 	
4.392e-02 	 3.335e+00 	
4.474e-02 	 3.288e+00 	
4.557e-02 	 3.242e+00 	
4.642e-02 	 3.196e+00 	
4.728e-02 	 3.151e+00 	
4.816e-02 	 3.105e+00 	
4.906e-02 	 3.060e+00 	
4.997e-02 	 3.015e+00 	
5.090e-02 	 2.970e+00 	
5.185e-02 	 2.926e+00 	
5.281e-02 	 2.882e+00 	
5.379e-02 	 2.838e+00 	
5.479e-02 	 2.794e+00 	
5.581e-02 	 2.751e+00 	
5.685e-02 	 2.708e+00 	
5.791e-02 	 2.666e+00 	
5.899e-02 	 2.623e+00 	
6.009e-02 	 2.581e+00 	
6.120e-02 	 2.540e+00 	
6.234e-02 	 2.498e+00 	
6.350e-02 	 2.457e+00 	
6.469e-02 	 2.416e+00 	
6.589e-02 	 2.376e+00 	
6.712e-02 	 2.336e+00 	
6.837e-02 	 2.297e+00 	
6.964e-02 	 2.257e+00 	
7.093e-02 	 2.219e+00 	
7.225e-02 	 2.180e+00 	
7.360e-02 	 2.142e+00 	
7.497e-02 	 2.104e+00 	
7.636e-02 	 2.067e+00 	
7.778e-02 	 2.030e+00 	
7.923e-02 	 1.994e+00 	
8.071e-02 	 1.957e+00 	
8.221e-02 	 1.922e+00 	
8.374e-02 	 1.886e+00 	
8.530e-02 	 1.851e+00 	
8.688e-02 	 1.817e+00 	
8.850e-02 	 1.783e+00 	
9.015e-02 	 1.749e+00 	
9.183e-02 	 1.716e+00 	
9.353e-02 	 1.683e+00 	
9.528e-02 	 1.650e+00 	
9.705e-02 	 1.618e+00 	
9.885e-02 	 1.586e+00 	
1.007e-01 	 1.555e+00 	
1.026e-01 	 1.524e+00 	
1.045e-01 	 1.494e+00 	
1.064e-01 	 1.464e+00 	
1.084e-01 	 1.434e+00 	
1.104e-01 	 1.405e+00 	
1.125e-01 	 1.376e+00 	
1.146e-01 	 1.348e+00 	
1.167e-01 	 1.320e+00 	
1.189e-01 	 1.292e+00 	
1.211e-01 	 1.265e+00 	
1.233e-01 	 1.238e+00 	
1.256e-01 	 1.212e+00 	
1.280e-01 	 1.186e+00 	
1.304e-01 	 1.160e+00 	
1.328e-01 	 1.135e+00 	
1.352e-01 	 1.110e+00 	
1.378e-01 	 1.086e+00 	
1.403e-01 	 1.062e+00 	
1.429e-01 	 1.038e+00 	
1.456e-01 	 1.015e+00 	
1.483e-01 	 9.921e-01 	
1.511e-01 	 9.697e-01 	
1.539e-01 	 9.476e-01 	
1.567e-01 	 9.259e-01 	
1.597e-01 	 9.046e-01 	
1.626e-01 	 8.837e-01 	
1.657e-01 	 8.631e-01 	
1.687e-01 	 8.429e-01 	
1.719e-01 	 8.231e-01 	
1.751e-01 	 8.036e-01 	
1.783e-01 	 7.844e-01 	
1.817e-01 	 7.657e-01 	
1.850e-01 	 7.472e-01 	
1.885e-01 	 7.292e-01 	
1.920e-01 	 7.114e-01 	
1.956e-01 	 6.940e-01 	
1.992e-01 	 6.769e-01 	
2.029e-01 	 6.602e-01 	
2.067e-01 	 6.438e-01 	
2.105e-01 	 6.277e-01 	
2.145e-01 	 6.119e-01 	
2.184e-01 	 5.965e-01 	
2.225e-01 	 5.813e-01 	
2.266e-01 	 5.665e-01 	
2.309e-01 	 5.520e-01 	
2.352e-01 	 5.378e-01 	
2.395e-01 	 5.238e-01 	
2.440e-01 	 5.102e-01 	
2.485e-01 	 4.968e-01 	
2.532e-01 	 4.838e-01 	
2.579e-01 	 4.710e-01 	
2.627e-01 	 4.585e-01 	
2.676e-01 	 4.462e-01 	
2.725e-01 	 4.343e-01 	
2.776e-01 	 4.226e-01 	
2.828e-01 	 4.111e-01 	
2.880e-01 	 3.999e-01 	
2.934e-01 	 3.890e-01 	
2.989e-01 	 3.783e-01 	
3.044e-01 	 3.679e-01 	
3.101e-01 	 3.576e-01 	
3.159e-01 	 3.477e-01 	
3.217e-01 	 3.379e-01 	
3.277e-01 	 3.284e-01 	
3.338e-01 	 3.191e-01 	
3.400e-01 	 3.101e-01 	
3.464e-01 	 3.012e-01 	
3.528e-01 	 2.926e-01 	
3.594e-01 	 2.842e-01 	
3.661e-01 	 2.760e-01 	
3.729e-01 	 2.679e-01 	
3.798e-01 	 2.601e-01 	
3.869e-01 	 2.525e-01 	
3.941e-01 	 2.451e-01 	
4.014e-01 	 2.378e-01 	
4.089e-01 	 2.308e-01 	
4.165e-01 	 2.239e-01 	
4.243e-01 	 2.172e-01 	
4.322e-01 	 2.106e-01 	
4.402e-01 	 2.043e-01 	
4.484e-01 	 1.981e-01 	
4.567e-01 	 1.920e-01 	
4.652e-01 	 1.861e-01 	
4.739e-01 	 1.804e-01 	
4.827e-01 	 1.748e-01 	
4.917e-01 	 1.694e-01 	
5.008e-01 	 1.642e-01 	
5.102e-01 	 1.590e-01 	
5.197e-01 	 1.540e-01 	
5.293e-01 	 1.492e-01 	
5.392e-01 	 1.444e-01 	
5.492e-01 	 1.399e-01 	
5.594e-01 	 1.354e-01 	
5.698e-01 	 1.310e-01 	
5.804e-01 	 1.268e-01 	
5.913e-01 	 1.227e-01 	
6.023e-01 	 1.187e-01 	
6.135e-01 	 1.149e-01 	
6.249e-01 	 1.111e-01 	
6.365e-01 	 1.075e-01 	
6.484e-01 	 1.039e-01 	
6.604e-01 	 1.005e-01 	
6.727e-01 	 9.715e-02 	
6.852e-01 	 9.391e-02 	
6.980e-01 	 9.077e-02 	
7.110e-01 	 8.772e-02 	
7.242e-01 	 8.476e-02 	
7.377e-01 	 8.188e-02 	
7.514e-01 	 7.910e-02 	
7.654e-01 	 7.640e-02 	
7.796e-01 	 7.378e-02 	
7.941e-01 	 7.124e-02 	
8.089e-01 	 6.878e-02 	
8.240e-01 	 6.640e-02 	
8.393e-01 	 6.409e-02 	
8.549e-01 	 6.185e-02 	
8.708e-01 	 5.968e-02 	
8.870e-01 	 5.758e-02 	
9.036e-01 	 5.555e-02 	
9.204e-01 	 5.358e-02 	
9.375e-01 	 5.168e-02 	
9.549e-01 	 4.983e-02 	
9.727e-01 	 4.805e-02 	
9.908e-01 	 4.632e-02 	
1.009e+00 	 4.465e-02 	
1.028e+00 	 4.303e-02 	
1.047e+00 	 4.147e-02 	
1.067e+00 	 3.995e-02 	
1.087e+00 	 3.849e-02 	
1.107e+00 	 3.708e-02 	
1.127e+00 	 3.571e-02 	
1.148e+00 	 3.439e-02 	
1.170e+00 	 3.311e-02 	
1.191e+00 	 3.188e-02 	
1.214e+00 	 3.069e-02 	
1.236e+00 	 2.954e-02 	
1.259e+00 	 2.842e-02 	
1.283e+00 	 2.735e-02 	
1.307e+00 	 2.631e-02 	
1.331e+00 	 2.531e-02 	
1.356e+00 	 2.435e-02 	
1.381e+00 	 2.341e-02 	
1.407e+00 	 2.252e-02 	
1.433e+00 	 2.165e-02 	
1.459e+00 	 2.081e-02 	
1.487e+00 	 2.000e-02 	
1.514e+00 	 1.922e-02 	
1.542e+00 	 1.847e-02 	
1.571e+00 	 1.775e-02 	
1.600e+00 	 1.705e-02 	
1.630e+00 	 1.638e-02 	
1.660e+00 	 1.573e-02 	
1.691e+00 	 1.510e-02 	
1.723e+00 	 1.450e-02 	
1.755e+00 	 1.392e-02 	
1.788e+00 	 1.336e-02 	
1.821e+00 	 1.283e-02 	
1.855e+00 	 1.231e-02 	
1.889e+00 	 1.181e-02 	
1.924e+00 	 1.133e-02 	
1.960e+00 	 1.087e-02 	
1.997e+00 	 1.042e-02 	
2.034e+00 	 9.997e-03 	
2.072e+00 	 9.586e-03 	
2.110e+00 	 9.191e-03 	
2.149e+00 	 8.810e-03 	
2.189e+00 	 8.444e-03 	
2.230e+00 	 8.093e-03 	
2.272e+00 	 7.754e-03 	
2.314e+00 	 7.429e-03 	
2.357e+00 	 7.117e-03 	
2.401e+00 	 6.817e-03 	
2.446e+00 	 6.529e-03 	
2.491e+00 	 6.252e-03 	
2.537e+00 	 5.986e-03 	
2.585e+00 	 5.730e-03 	
2.633e+00 	 5.485e-03 	
2.682e+00 	 5.249e-03 	
2.732e+00 	 5.023e-03 	
2.783e+00 	 4.806e-03 	
2.834e+00 	 4.598e-03 	
2.887e+00 	 4.398e-03 	
2.941e+00 	 4.206e-03 	
2.996e+00 	 4.022e-03 	
3.051e+00 	 3.846e-03 	
3.108e+00 	 3.677e-03 	
3.166e+00 	 3.515e-03 	
3.225e+00 	 3.359e-03 	
3.285e+00 	 3.210e-03 	
3.346e+00 	 3.067e-03 	
3.408e+00 	 2.931e-03 	
3.472e+00 	 2.799e-03 	
3.536e+00 	 2.674e-03 	
3.602e+00 	 2.553e-03 	
3.669e+00 	 2.438e-03 	
3.737e+00 	 2.328e-03 	
3.807e+00 	 2.222e-03 	
3.878e+00 	 2.121e-03 	
3.950e+00 	 2.024e-03 	
4.024e+00 	 1.932e-03 	
4.098e+00 	 1.843e-03 	
4.175e+00 	 1.758e-03 	
4.252e+00 	 1.677e-03 	
4.331e+00 	 1.599e-03 	
4.412e+00 	 1.525e-03 	
4.494e+00 	 1.454e-03 	
4.578e+00 	 1.386e-03 	
4.663e+00 	 1.321e-03 	
4.750e+00 	 1.259e-03 	
4.838e+00 	 1.200e-03 	
4.928e+00 	 1.143e-03 	
5.020e+00 	 1.089e-03 	
5.113e+00 	 1.038e-03 	
5.209e+00 	 9.883e-04 	
5.305e+00 	 9.411e-04 	
5.404e+00 	 8.961e-04 	
5.505e+00 	 8.531e-04 	
5.607e+00 	 8.121e-04 	
5.712e+00 	 7.730e-04 	
5.818e+00 	 7.356e-04 	
5.926e+00 	 6.999e-04 	
6.036e+00 	 6.659e-04 	
6.149e+00 	 6.335e-04 	
6.263e+00 	 6.025e-04 	
6.380e+00 	 5.730e-04 	
6.498e+00 	 5.449e-04 	
6.619e+00 	 5.180e-04 	
6.743e+00 	 4.925e-04 	
6.868e+00 	 4.681e-04 	
6.996e+00 	 4.449e-04 	
7.126e+00 	 4.227e-04 	
7.259e+00 	 4.016e-04 	
7.394e+00 	 3.816e-04 	
7.531e+00 	 3.624e-04 	
7.672e+00 	 3.442e-04 	
7.814e+00 	 3.269e-04 	
7.960e+00 	 3.104e-04 	
8.108e+00 	 2.946e-04 	
8.259e+00 	 2.797e-04 	
8.412e+00 	 2.654e-04 	
8.569e+00 	 2.519e-04 	
8.729e+00 	 2.390e-04 	
8.891e+00 	 2.267e-04 	
9.056e+00 	 2.151e-04 	
9.225e+00 	 2.040e-04 	
9.397e+00 	 1.935e-04 	
9.572e+00 	 1.834e-04 	
9.750e+00 	 1.739e-04 	
9.931e+00 	 1.649e-04 	
1.012e+01 	 1.563e-04 	
1.030e+01 	 1.481e-04 	
1.050e+01 	 1.403e-04 	
1.069e+01 	 1.329e-04 	
1.089e+01 	 1.259e-04 	
1.109e+01 	 1.193e-04 	
1.130e+01 	 1.130e-04 	
1.151e+01 	 1.070e-04 	
1.172e+01 	 1.013e-04 	
1.194e+01 	 9.588e-05 	
1.216e+01 	 9.076e-05 	
1.239e+01 	 8.590e-05 	
1.262e+01 	 8.128e-05 	
1.286e+01 	 7.691e-05 	
1.310e+01 	 7.276e-05 	
1.334e+01 	 6.882e-05 	
1.359e+01 	 6.509e-05 	
1.384e+01 	 6.155e-05 	
1.410e+01 	 5.820e-05 	
1.436e+01 	 5.502e-05 	
1.463e+01 	 5.201e-05 	
1.490e+01 	 4.916e-05 	
1.518e+01 	 4.645e-05 	
1.546e+01 	 4.389e-05 	
1.575e+01 	 4.147e-05 	
1.604e+01 	 3.917e-05 	
1.634e+01 	 3.700e-05 	
1.664e+01 	 3.494e-05 	
1.695e+01 	 3.299e-05 	
1.727e+01 	 3.115e-05 	
1.759e+01 	 2.940e-05 	
1.792e+01 	 2.775e-05 	
1.825e+01 	 2.619e-05 	
1.859e+01 	 2.472e-05 	
1.894e+01 	 2.332e-05 	
1.929e+01 	 2.200e-05 	
1.965e+01 	 2.075e-05 	
2.001e+01 	 1.957e-05 	
2.038e+01 	 1.845e-05 	
2.076e+01 	 1.740e-05 	
2.115e+01 	 1.640e-05 	
2.154e+01 	 1.546e-05 	
2.195e+01 	 1.457e-05 	
2.235e+01 	 1.373e-05 	
2.277e+01 	 1.294e-05 	
2.319e+01 	 1.219e-05 	
2.363e+01 	 1.148e-05 	
2.406e+01 	 1.081e-05 	
2.451e+01 	 1.018e-05 	
2.497e+01 	 9.588e-06 	
2.543e+01 	 9.027e-06 	
2.591e+01 	 8.497e-06 	
2.639e+01 	 7.998e-06 	
2.688e+01 	 7.527e-06 	
2.738e+01 	 7.082e-06 	
2.789e+01 	 6.663e-06 	
2.841e+01 	 6.268e-06 	
2.894e+01 	 5.895e-06 	
2.948e+01 	 5.544e-06 	
3.002e+01 	 5.213e-06 	
3.058e+01 	 4.902e-06 	
3.115e+01 	 4.608e-06 	
3.173e+01 	 4.331e-06 	
3.232e+01 	 4.070e-06 	
3.292e+01 	 3.825e-06 	
3.354e+01 	 3.594e-06 	
3.416e+01 	 3.376e-06 	
3.480e+01 	 3.171e-06 	
3.544e+01 	 2.978e-06 	
3.610e+01 	 2.797e-06 	
3.678e+01 	 2.626e-06 	
3.746e+01 	 2.465e-06 	
3.816e+01 	 2.314e-06 	
3.887e+01 	 2.172e-06 	
3.959e+01 	 2.038e-06 	
4.033e+01 	 1.912e-06 	
4.108e+01 	 1.794e-06 	
4.184e+01 	 1.683e-06 	
4.262e+01 	 1.578e-06 	
4.341e+01 	 1.480e-06 	
4.422e+01 	 1.388e-06 	
4.505e+01 	 1.301e-06 	
4.588e+01 	 1.220e-06 	
4.674e+01 	 1.143e-06 	
4.761e+01 	 1.071e-06 	
4.849e+01 	 1.004e-06 	
4.940e+01 	 9.406e-07 	
5.032e+01 	 8.811e-07 	
5.125e+01 	 8.253e-07 	
5.221e+01 	 7.729e-07 	
5.318e+01 	 7.238e-07 	
5.417e+01 	 6.777e-07 	
5.517e+01 	 6.344e-07 	
5.620e+01 	 5.938e-07 	
5.725e+01 	 5.557e-07 	
5.831e+01 	 5.200e-07 	
5.940e+01 	 4.866e-07 	
6.050e+01 	 4.552e-07 	
6.163e+01 	 4.258e-07 	
6.278e+01 	 3.982e-07 	
6.394e+01 	 3.724e-07 	
6.513e+01 	 3.482e-07 	
6.635e+01 	 3.255e-07 	
6.758e+01 	 3.043e-07 	
6.884e+01 	 2.844e-07 	
7.012e+01 	 2.658e-07 	
7.143e+01 	 2.483e-07 	
7.275e+01 	 2.320e-07 	
7.411e+01 	 2.167e-07 	
7.549e+01 	 2.024e-07 	
7.689e+01 	 1.890e-07 	
7.832e+01 	 1.765e-07 	
7.978e+01 	 1.648e-07 	
8.127e+01 	 1.538e-07 	
8.278e+01 	 1.436e-07 	
8.432e+01 	 1.340e-07 	
8.589e+01 	 1.250e-07 	
8.749e+01 	 1.167e-07 	
8.911e+01 	 1.088e-07 	
9.077e+01 	 1.015e-07 	
9.246e+01 	 9.467e-08 	
9.418e+01 	 8.828e-08 	
9.594e+01 	 8.231e-08 	
9.772e+01 	 7.674e-08 	
9.954e+01 	 7.153e-08 	
1.014e+02 	 6.666e-08 	
1.033e+02 	 6.212e-08 	
1.052e+02 	 5.788e-08 	
1.072e+02 	 5.392e-08 	
1.092e+02 	 5.023e-08 	
1.112e+02 	 4.678e-08 	
1.133e+02 	 4.356e-08 	
1.154e+02 	 4.056e-08 	
1.175e+02 	 3.776e-08 	
1.197e+02 	 3.515e-08 	
1.219e+02 	 3.272e-08 	
1.242e+02 	 3.045e-08 	
1.265e+02 	 2.833e-08 	
1.289e+02 	 2.636e-08 	
1.313e+02 	 2.452e-08 	
1.337e+02 	 2.281e-08 	
1.362e+02 	 2.121e-08 	
1.387e+02 	 1.972e-08 	
1.413e+02 	 1.834e-08 	
1.439e+02 	 1.705e-08 	
1.466e+02 	 1.584e-08 	
1.493e+02 	 1.472e-08 	
1.521e+02 	 1.368e-08 	
1.549e+02 	 1.271e-08 	
1.578e+02 	 1.181e-08 	
1.608e+02 	 1.097e-08 	
1.638e+02 	 1.019e-08 	
1.668e+02 	 9.461e-09 	
1.699e+02 	 8.784e-09 	
1.731e+02 	 8.155e-09 	
1.763e+02 	 7.570e-09 	
1.796e+02 	 7.026e-09 	
1.829e+02 	 6.520e-09 	
1.863e+02 	 6.049e-09 	
1.898e+02 	 5.612e-09 	
1.933e+02 	 5.206e-09 	
1.969e+02 	 4.828e-09 	
2.006e+02 	 4.478e-09 	
2.043e+02 	 4.152e-09 	
2.081e+02 	 3.849e-09 	
2.120e+02 	 3.568e-09 	
2.159e+02 	 3.307e-09 	
2.200e+02 	 3.065e-09 	
2.241e+02 	 2.840e-09 	
2.282e+02 	 2.631e-09 	
2.325e+02 	 2.437e-09 	
2.368e+02 	 2.258e-09 	
2.412e+02 	 2.091e-09 	
2.457e+02 	 1.936e-09 	
2.503e+02 	 1.793e-09 	
2.549e+02 	 1.659e-09 	
2.597e+02 	 1.536e-09 	
2.645e+02 	 1.422e-09 	
2.694e+02 	 1.315e-09 	
2.744e+02 	 1.217e-09 	
2.795e+02 	 1.126e-09 	
2.847e+02 	 1.042e-09 	
2.900e+02 	 9.633e-10 	
2.954e+02 	 8.908e-10 	
3.009e+02 	 8.236e-10 	
3.065e+02 	 7.614e-10 	
3.122e+02 	 7.039e-10 	
3.181e+02 	 6.505e-10 	
3.240e+02 	 6.012e-10 	
3.300e+02 	 5.555e-10 	
3.361e+02 	 5.132e-10 	
3.424e+02 	 4.741e-10 	
3.488e+02 	 4.379e-10 	
3.553e+02 	 4.044e-10 	
3.619e+02 	 3.734e-10 	
3.686e+02 	 3.447e-10 	
3.755e+02 	 3.182e-10 	
3.825e+02 	 2.937e-10 	
3.896e+02 	 2.711e-10 	
3.968e+02 	 2.501e-10 	
4.042e+02 	 2.308e-10 	
4.117e+02 	 2.129e-10 	
4.194e+02 	 1.964e-10 	
4.272e+02 	 1.811e-10 	
4.351e+02 	 1.670e-10 	
4.432e+02 	 1.540e-10 	
4.515e+02 	 1.419e-10 	
