# M (M_s) 	 dN/dMdV (M_s^-1 pc^-3)
1.429e+04 	 1.353e-03 	
2.126e+04 	 8.948e-04 	
3.162e+04 	 6.495e-04 	
4.703e+04 	 4.689e-04 	
6.996e+04 	 2.913e-04 	
1.040e+05 	 2.066e-04 	
1.548e+05 	 1.281e-04 	
2.302e+05 	 7.485e-05 	
3.424e+05 	 4.007e-05 	
5.092e+05 	 2.326e-05 	
7.574e+05 	 1.027e-05 	
1.126e+06 	 5.134e-06 	
1.675e+06 	 1.881e-06 	
2.492e+06 	 4.321e-07 	
3.707e+06 	 1.184e-07 	
5.513e+06 	 2.170e-08 	
8.200e+06 	 4.864e-09 	
# /GMCs (MW,gauss)/#30e8e8/-/
